# time(s) Ez_src(V/m)
0.000000000000000000e+00 0.000000000000000000e+00
3.333333333333333536e-12 0.000000000000000000e+00
6.666666666666667071e-12 0.000000000000000000e+00
1.000000000000000101e-11 -1.755224347850345901e-08
1.333333333333333414e-11 -1.478829350610456684e-07
1.666666666666666727e-11 -5.326557489424434673e-07
2.000000000000000202e-11 -1.321143708161018304e-06
2.333333333333333354e-11 -2.684408197073040986e-06
2.666666666666666828e-11 -4.827891151537054207e-06
2.999999999999999980e-11 -7.992221931964927590e-06
3.333333333333333455e-11 -1.244343910076167755e-05
3.666666666666666929e-11 -1.847037934294047003e-05
4.000000000000000404e-11 -2.638290564430593982e-05
4.333333333333333879e-11 -3.651588339907181494e-05
4.666666666666666707e-11 -4.922993537697277564e-05
5.000000000000000182e-11 -6.490732195771484940e-05
5.333333333333333657e-11 -8.394734806554043438e-05
5.666666666666667132e-11 -1.067646000389607078e-04
5.999999999999999960e-11 -1.337914716884904790e-04
6.333333333333333435e-11 -1.654759527834751606e-04
6.666666666666666910e-11 -2.022802036026168028e-04
7.000000000000000384e-11 -2.446753965569203014e-04
7.333333333333333859e-11 -2.931403938951154743e-04
7.666666666666667334e-11 -3.481609133309766855e-04
8.000000000000000808e-11 -4.102288111999156201e-04
8.333333333333334283e-11 -4.798402428957318890e-04
8.666666666666667758e-11 -5.574901221406452579e-04
8.999999999999999940e-11 -6.436716161235861346e-04
9.333333333333333415e-11 -7.388730607300793025e-04
9.666666666666666890e-11 -8.435782413714520067e-04
1.000000000000000036e-10 -9.582634038706540390e-04
1.033333333333333384e-10 -1.083393541974674978e-03
1.066666666666666731e-10 -1.219420275471244913e-03
1.100000000000000079e-10 -1.366778470257036786e-03
1.133333333333333426e-10 -1.525887234444603781e-03
1.166666666666666774e-10 -1.697145886745039757e-03
1.199999999999999992e-10 -1.880931674355258232e-03
1.233333333333333469e-10 -2.077596667308871919e-03
1.266666666666666687e-10 -2.287465233662693172e-03
1.300000000000000164e-10 -2.510833391838140569e-03
1.333333333333333382e-10 -2.747966222957561825e-03
1.366666666666666859e-10 -2.999096334943852308e-03
1.400000000000000077e-10 -3.264419600729172311e-03
1.433333333333333295e-10 -3.544093701355150068e-03
1.466666666666666772e-10 -3.838236865345160190e-03
1.499999999999999990e-10 -4.146926478936567052e-03
1.533333333333333467e-10 -4.470196602121404884e-03
1.566666666666666685e-10 -4.808035579265456348e-03
1.600000000000000162e-10 -5.160384691316790770e-03
1.633333333333333380e-10 -5.527135633214521476e-03
1.666666666666666857e-10 -5.908130706322996771e-03
1.700000000000000075e-10 -6.303160969054995462e-03
1.733333333333333552e-10 -6.711964523561674001e-03
1.766666666666666770e-10 -7.134224205725264722e-03
1.799999999999999988e-10 -7.569567106179831556e-03
1.833333333333333465e-10 -8.017564796146302991e-03
1.866666666666666683e-10 -8.477731119110777300e-03
1.900000000000000160e-10 -8.949522117160501472e-03
1.933333333333333378e-10 -9.432334649954242020e-03
1.966666666666666855e-10 -9.925505909762027262e-03
2.000000000000000073e-10 -1.042831306730337103e-02
2.033333333333333550e-10 -1.093997382192695919e-02
2.066666666666666768e-10 -1.145964629336998150e-02
2.100000000000000245e-10 -1.198642766082917005e-02
2.133333333333333463e-10 -1.251935481772439331e-02
2.166666666666666681e-10 -1.305740519844014388e-02
2.200000000000000158e-10 -1.359949743989190447e-02
2.233333333333333376e-10 -1.414449126245828983e-02
2.266666666666666853e-10 -1.469118898362408582e-02
2.300000000000000071e-10 -1.523833549607065893e-02
2.333333333333333548e-10 -1.578461949109901882e-02
2.366666666666666766e-10 -1.632867538671107718e-02
2.399999999999999984e-10 -1.686908454078589817e-02
2.433333333333333719e-10 -1.740437692265495856e-02
2.466666666666666937e-10 -1.793303124340694596e-02
2.500000000000000156e-10 -1.845347859351879199e-02
2.533333333333333374e-10 -1.896410368322119094e-02
2.566666666666666592e-10 -1.946324697691220046e-02
2.600000000000000327e-10 -1.994920760924651787e-02
2.633333333333333546e-10 -2.042024470014053988e-02
2.666666666666666764e-10 -2.087458055671853260e-02
2.699999999999999982e-10 -2.131040267833895357e-02
2.733333333333333717e-10 -2.172586814122360807e-02
2.766666666666666935e-10 -2.211910545429747466e-02
2.800000000000000154e-10 -2.248821741003357785e-02
2.833333333333333372e-10 -2.283128488415180068e-02
2.866666666666666590e-10 -2.314636967804468634e-02
2.900000000000000325e-10 -2.343151877254673679e-02
2.933333333333333544e-10 -2.368476703229453750e-02
2.966666666666666762e-10 -2.390414196797762542e-02
2.999999999999999980e-10 -2.408766618273753407e-02
3.033333333333333715e-10 -2.423336162050498607e-02
3.066666666666666933e-10 -2.433925437456252797e-02
3.100000000000000152e-10 -2.440337803550551160e-02
3.133333333333333370e-10 -2.442377819054868809e-02
3.166666666666667105e-10 -2.439851574598850964e-02
3.200000000000000323e-10 -2.432567234144067739e-02
3.233333333333333542e-10 -2.420335372097360410e-02
3.266666666666666760e-10 -2.402969466806650217e-02
3.299999999999999978e-10 -2.380286372514656482e-02
3.333333333333333713e-10 -2.352106670693636728e-02
3.366666666666666931e-10 -2.318255167684708101e-02
3.400000000000000150e-10 -2.278561310776775276e-02
3.433333333333333368e-10 -2.232859735039218960e-02
3.466666666666667103e-10 -2.180990605824780285e-02
3.500000000000000321e-10 -2.122800114587857639e-02
3.533333333333333540e-10 -2.058140929774396333e-02
3.566666666666666758e-10 -1.986872598180956795e-02
3.599999999999999976e-10 -1.908862049388949239e-02
3.633333333333333711e-10 -1.823984002661027323e-02
3.666666666666666929e-10 -1.732121448083749973e-02
3.700000000000000148e-10 -1.633165961796310614e-02
3.733333333333333366e-10 -1.527018219951216393e-02
3.766666666666667101e-10 -1.413588409002553697e-02
3.800000000000000319e-10 -1.292796596278395632e-02
3.833333333333333538e-10 -1.164573162828587416e-02
3.866666666666666756e-10 -1.028859144517926122e-02
3.900000000000000491e-10 -8.856066570911359098e-03
3.933333333333333709e-10 -7.347791795715159779e-03
3.966666666666666928e-10 -5.763520103554523738e-03
4.000000000000000146e-10 -4.103125610974704858e-03
4.033333333333333364e-10 -2.366606342188990082e-03
4.066666666666667099e-10 -5.540877874633672821e-04
4.100000000000000317e-10 1.334174435184004104e-03
4.133333333333333536e-10 3.297791373369851099e-03
4.166666666666666754e-10 5.336238879907312903e-03
4.200000000000000489e-10 7.448854462328994945e-03
4.233333333333333707e-10 9.634835624529349690e-03
4.266666666666666926e-10 1.189323800114580262e-02
4.300000000000000144e-10 1.422297297353198459e-02
4.333333333333333362e-10 1.662280635577912530e-02
4.366666666666667097e-10 1.909135693072527146e-02
4.400000000000000315e-10 2.162709582799269073e-02
4.433333333333333534e-10 2.422834484813428391e-02
4.466666666666666752e-10 2.689327623475546922e-02
4.500000000000000487e-10 2.961991216108014746e-02
4.533333333333333705e-10 3.240612424927845348e-02
4.566666666666666924e-10 3.524963391553240233e-02
4.600000000000000142e-10 3.814801262589795350e-02
4.633333333333333360e-10 4.109868262151435137e-02
4.666666666666667095e-10 4.409891701690212690e-02
4.700000000000000313e-10 4.714584154047918307e-02
4.733333333333333532e-10 5.023643573553217972e-02
4.766666666666666750e-10 5.336753441150823840e-02
4.799999999999999968e-10 5.653582962319615712e-02
4.833333333333333186e-10 5.973787272193806924e-02
4.866666666666667439e-10 6.297007689517174212e-02
4.900000000000000657e-10 6.622871936555062289e-02
4.933333333333333875e-10 6.950994507830765556e-02
4.966666666666667093e-10 7.280976953419185382e-02
5.000000000000000311e-10 7.612408210427326627e-02
5.033333333333333530e-10 7.944864992042875718e-02
5.066666666666666748e-10 8.277912193811252928e-02
5.099999999999999966e-10 8.611103331632120883e-02
5.133333333333333184e-10 8.943980955302804903e-02
5.166666666666667437e-10 9.276077185781568535e-02
5.200000000000000655e-10 9.606914172688874043e-02
5.233333333333333873e-10 9.936004626445640864e-02
5.266666666666667091e-10 1.026285239481180278e-01
5.300000000000000309e-10 1.058695304401285758e-01
5.333333333333333528e-10 1.090779444879978327e-01
5.366666666666666746e-10 1.122485738916636222e-01
5.399999999999999964e-10 1.153761625312020311e-01
5.433333333333333182e-10 1.184553966235710881e-01
5.466666666666667435e-10 1.214809117612624945e-01
5.500000000000000653e-10 1.244473000890478492e-01
5.533333333333333871e-10 1.273491175448513146e-01
5.566666666666667089e-10 1.301808911906873201e-01
5.600000000000000307e-10 1.329371268256106520e-01
5.633333333333333526e-10 1.356123172931287812e-01
5.666666666666666744e-10 1.382009499271517894e-01
5.699999999999999962e-10 1.406975148388825148e-01
5.733333333333333180e-10 1.430965132031807585e-01
5.766666666666667433e-10 1.453924656600299459e-01
5.800000000000000651e-10 1.475799207227057874e-01
5.833333333333333869e-10 1.496534634131335695e-01
5.866666666666667087e-10 1.516077242367609157e-01
5.900000000000000305e-10 1.534373874243842306e-01
5.933333333333333524e-10 1.551372000865164358e-01
5.966666666666666742e-10 1.567019811582416322e-01
5.999999999999999960e-10 1.581266303248400618e-01
6.033333333333334212e-10 1.594061368508514764e-01
6.066666666666667431e-10 1.605355886268368115e-01
6.100000000000000649e-10 1.615101813480563087e-01
6.133333333333333867e-10 1.623252271095910471e-01
6.166666666666667085e-10 1.629761637302089561e-01
6.200000000000000303e-10 1.634585636027407196e-01
6.233333333333333522e-10 1.637681424760882576e-01
6.266666666666666740e-10 1.639007681626782620e-01
6.299999999999999958e-10 1.638524694396063797e-01
6.333333333333334210e-10 1.636194447696714127e-01
6.366666666666667429e-10 1.631980705002958054e-01
6.400000000000000647e-10 1.625849095666936361e-01
6.433333333333333865e-10 1.617767196162525067e-01
6.466666666666667083e-10 1.607704611075921886e-01
6.500000000000000301e-10 1.595633052363352733e-01
6.533333333333333520e-10 1.581526418838037906e-01
6.566666666666666738e-10 1.565360871139503118e-01
6.599999999999999956e-10 1.547114902992576813e-01
6.633333333333334208e-10 1.526769415907628935e-01
6.666666666666667427e-10 1.504307786931479152e-01
6.700000000000000645e-10 1.479715935528622128e-01
6.733333333333333863e-10 1.452982387064890579e-01
6.766666666666667081e-10 1.424098335409962612e-01
6.800000000000000299e-10 1.393057700100555907e-01
6.833333333333333518e-10 1.359857180899149975e-01
6.866666666666666736e-10 1.324496313101076184e-01
6.899999999999999954e-10 1.286977514489386909e-01
6.933333333333334206e-10 1.247306131166116688e-01
6.966666666666667425e-10 1.205490479407815285e-01
7.000000000000000643e-10 1.161541885855757045e-01
7.033333333333333861e-10 1.115474721230992061e-01
7.066666666666667079e-10 1.067306431331189881e-01
7.100000000000000297e-10 1.017057566228501547e-01
7.133333333333333516e-10 9.647518012850460345e-02
7.166666666666666734e-10 9.104159572403132394e-02
7.199999999999999952e-10 8.540800154471647754e-02
7.233333333333334204e-10 7.957771299336917348e-02
7.266666666666667423e-10 7.355436322120662007e-02
7.300000000000000641e-10 6.734190338018067323e-02
7.333333333333333859e-10 6.094460254268295463e-02
7.366666666666667077e-10 5.436704686273805681e-02
7.400000000000000295e-10 4.761413857387940263e-02
7.433333333333333514e-10 4.069109438335231227e-02
7.466666666666666732e-10 3.360344348619349886e-02
7.499999999999999950e-10 2.635702489914043198e-02
7.533333333333334202e-10 1.895798460831067678e-02
7.566666666666667421e-10 1.141277221596770364e-02
7.600000000000000639e-10 3.728136864091403414e-03
7.633333333333333857e-10 -4.088877052522196971e-03
7.666666666666667075e-10 -1.203093478501097643e-02
7.700000000000000293e-10 -2.009041649310304434e-02
7.733333333333333512e-10 -2.825942315035186517e-02
7.766666666666666730e-10 -3.652978267285025143e-02
7.800000000000000982e-10 -4.489305665852214022e-02
7.833333333333334200e-10 -5.334054771452267918e-02
7.866666666666667419e-10 -6.186330698127879418e-02
7.900000000000000637e-10 -7.045214225629908844e-02
7.933333333333333855e-10 -7.909762649202929652e-02
7.966666666666667073e-10 -8.779010689704319637e-02
8.000000000000000291e-10 -9.651971424315854142e-02
8.033333333333333510e-10 -1.052763727614595690e-01
8.066666666666666728e-10 -1.140498104689514069e-01
8.100000000000000980e-10 -1.228295697212973131e-01
8.133333333333334198e-10 -1.316050183478328361e-01
8.166666666666667417e-10 -1.403653611095940779e-01
8.200000000000000635e-10 -1.490996516279558537e-01
8.233333333333333853e-10 -1.577968044635801592e-01
8.266666666666667071e-10 -1.664456077483414398e-01
8.300000000000000289e-10 -1.750347361198023033e-01
8.333333333333333508e-10 -1.835527638916338300e-01
8.366666666666666726e-10 -1.919881786794963852e-01
8.400000000000000978e-10 -2.003293952272826306e-01
8.433333333333334196e-10 -2.085647695828079518e-01
8.466666666666667415e-10 -2.166826133962358181e-01
8.500000000000000633e-10 -2.246712086913060236e-01
8.533333333333333851e-10 -2.325188227609528702e-01
8.566666666666667069e-10 -2.402137232313620585e-01
8.600000000000000287e-10 -2.477441934222590625e-01
8.633333333333333506e-10 -2.550985478127734685e-01
8.666666666666666724e-10 -2.622651477459383984e-01
8.700000000000000976e-10 -2.692324171700995472e-01
8.733333333333334194e-10 -2.759888586772089591e-01
8.766666666666667413e-10 -2.825230694809772736e-01
8.800000000000000631e-10 -2.888237575057210904e-01
8.833333333333333849e-10 -2.948797576192000447e-01
8.866666666666667067e-10 -3.006800478470050830e-01
8.900000000000000285e-10 -3.062137656537358699e-01
8.933333333333333504e-10 -3.114702241231883661e-01
8.966666666666666722e-10 -3.164389282641855705e-01
9.000000000000000974e-10 -3.211095911190276486e-01
9.033333333333334192e-10 -3.254721498961585802e-01
9.066666666666667411e-10 -3.295167820359400923e-01
9.100000000000000629e-10 -3.332339210940544749e-01
9.133333333333333847e-10 -3.366142725247717737e-01
9.166666666666667065e-10 -3.396488292541312570e-01
9.200000000000000283e-10 -3.423288872037504871e-01
9.233333333333333502e-10 -3.446460604634521419e-01
9.266666666666666720e-10 -3.465922963372550791e-01
9.300000000000000972e-10 -3.481598901084683728e-01
9.333333333333334190e-10 -3.493414995015880486e-01
9.366666666666667409e-10 -3.501301589002615011e-01
9.400000000000000627e-10 -3.505192932161028674e-01
9.433333333333333845e-10 -3.505027314975402430e-01
9.466666666666667063e-10 -3.500747200361546962e-01
9.500000000000000281e-10 -3.492299352117282929e-01
9.533333333333333500e-10 -3.479634958870729267e-01
9.566666666666666718e-10 -3.462709753835359616e-01
9.599999999999999936e-10 -3.441484130360110694e-01
9.633333333333333154e-10 -3.415923252432426782e-01
9.666666666666666373e-10 -3.385997160839828157e-01
9.699999999999999591e-10 -3.351680873328101162e-01
9.733333333333334877e-10 -3.312954480843118277e-01
9.766666666666668095e-10 -3.269803237537929341e-01
9.800000000000001313e-10 -3.222217645316671208e-01
9.833333333333334532e-10 -3.170193532658632241e-01
9.866666666666667750e-10 -3.113732127337275890e-01
9.900000000000000968e-10 -3.052840123486992296e-01
9.933333333333334186e-10 -2.987529741729419430e-01
9.966666666666667405e-10 -2.917818783880506417e-01
1.000000000000000062e-09 -2.843730680066096084e-01
1.003333333333333384e-09 -2.765294529631961984e-01
1.006666666666666706e-09 -2.682545135296833805e-01
1.010000000000000028e-09 -2.595523030326274960e-01
1.013333333333333350e-09 -2.504274498805472704e-01
1.016666666666666671e-09 -2.408851588234470209e-01
1.019999999999999993e-09 -2.309312115677881472e-01
1.023333333333333315e-09 -2.205719665694951537e-01
1.026666666666666637e-09 -2.098143581629603183e-01
1.030000000000000165e-09 -1.986658949182157352e-01
1.033333333333333487e-09 -1.871346572329167235e-01
1.036666666666666809e-09 -1.752292941700768769e-01
1.040000000000000131e-09 -1.629590195157161747e-01
1.043333333333333453e-09 -1.503336071354839931e-01
1.046666666666666775e-09 -1.373633854788356423e-01
1.050000000000000096e-09 -1.240592313869232216e-01
1.053333333333333418e-09 -1.104325630829832705e-01
1.056666666666666740e-09 -9.649533240535451695e-02
1.060000000000000062e-09 -8.226001628215313943e-02
1.063333333333333384e-09 -6.773960744007727353e-02
1.066666666666666706e-09 -5.294760438083868231e-02
1.070000000000000027e-09 -3.789800052592583179e-02
1.073333333333333349e-09 -2.260527269521758059e-02
1.076666666666666671e-09 -7.084368791710709753e-03
1.079999999999999993e-09 8.649305221101763128e-03
1.083333333333333315e-09 2.457989907331156049e-02
1.086666666666666636e-09 4.069113266107274307e-02
1.090000000000000165e-09 5.696631121442437273e-02
1.093333333333333487e-09 7.338834119987872051e-02
1.096666666666666809e-09 8.993974681792808734e-02
1.100000000000000131e-09 1.066026872330532171e-01
1.103333333333333452e-09 1.233589744272381439e-01
1.106666666666666774e-09 1.401900916982684320e-01
1.110000000000000096e-09 1.570772127617748593e-01
1.113333333333333418e-09 1.740012214524155054e-01
1.116666666666666740e-09 1.909427320243197446e-01
1.120000000000000061e-09 2.078821099529707117e-01
1.123333333333333383e-09 2.247994933515039540e-01
1.126666666666666705e-09 2.416748148585905198e-01
1.130000000000000027e-09 2.584878240277180272e-01
1.133333333333333349e-09 2.752181101722879775e-01
1.136666666666666671e-09 2.918451256769254432e-01
1.139999999999999992e-09 3.083482097360246144e-01
1.143333333333333314e-09 3.247066124440243784e-01
1.146666666666666636e-09 3.408995193165946791e-01
1.150000000000000165e-09 3.569060760971041746e-01
1.153333333333333487e-09 3.727054138957294205e-01
1.156666666666666808e-09 3.882766746074322040e-01
1.160000000000000130e-09 4.035990366063896828e-01
1.163333333333333452e-09 4.186517406479265957e-01
1.166666666666666774e-09 4.334141159345888394e-01
1.170000000000000096e-09 4.478656064053597174e-01
1.173333333333333417e-09 4.619857971020089327e-01
1.176666666666666739e-09 4.757544406623201438e-01
1.180000000000000061e-09 4.891514838731929604e-01
1.183333333333333383e-09 5.021570942666409021e-01
1.186666666666666705e-09 5.147516866922333678e-01
1.190000000000000027e-09 5.269159498558282362e-01
1.193333333333333348e-09 5.386308728393947032e-01
1.196666666666666670e-09 5.498777714635217917e-01
1.199999999999999992e-09 5.606383145392375145e-01
1.203333333333333314e-09 5.708945499434968651e-01
1.206666666666666842e-09 5.806289305039017412e-01
1.210000000000000164e-09 5.898243396170378405e-01
1.213333333333333486e-09 5.984641166164519355e-01
1.216666666666666808e-09 6.065320818487719423e-01
1.220000000000000130e-09 6.140125613537902316e-01
1.223333333333333452e-09 6.208904112120354757e-01
1.226666666666666773e-09 6.271510414643282072e-01
1.230000000000000095e-09 6.327804396091719630e-01
1.233333333333333417e-09 6.377651935832975294e-01
1.236666666666666739e-09 6.420925142552049714e-01
1.240000000000000061e-09 6.457502573917034416e-01
1.243333333333333383e-09 6.487269449869285110e-01
1.246666666666666704e-09 6.510117860475226337e-01
1.250000000000000026e-09 6.525946967104472307e-01
1.253333333333333348e-09 6.534663196820059694e-01
1.256666666666666670e-09 6.536180429725296781e-01
1.259999999999999992e-09 6.530420179075929754e-01
1.263333333333333313e-09 6.517311763891054932e-01
1.266666666666666842e-09 6.496792473333143914e-01
1.270000000000000164e-09 6.468807723120629793e-01
1.273333333333333486e-09 6.433311203570794001e-01
1.276666666666666808e-09 6.390265018640762795e-01
1.280000000000000129e-09 6.339639816027097252e-01
1.283333333333333451e-09 6.281414908512765738e-01
1.286666666666666773e-09 6.215578385263896832e-01
1.290000000000000095e-09 6.142127213670621755e-01
1.293333333333333417e-09 6.061067331407825609e-01
1.296666666666666738e-09 5.972413728195240523e-01
1.300000000000000060e-09 5.876190517520768486e-01
1.303333333333333382e-09 5.772430997433792843e-01
1.306666666666666704e-09 5.661177701343709234e-01
1.310000000000000026e-09 5.542482437436528908e-01
1.313333333333333348e-09 5.416406317166718720e-01
